45590.0;-1.965
45590.004;-1.96
45590.008;-1.83
45590.012;-1.645
45590.015999999996;-1.42
45590.02;-1.15
45590.024000000005;-0.97
45590.028;-0.78
45590.032;-0.64
45590.03599999999;-0.63
45590.04;-0.765
45590.044;-0.96
45590.047999999995;-1.155
45590.052;-1.235
45590.056;-1.285
45590.06;-1.28
45590.064000000006;-1.31
45590.068;-1.3
45590.072;-1.275
45590.075999999994;-1.315
45590.08;-1.31
45590.084;-1.29
45590.087999999996;-1.275
45590.092000000004;-1.285
45590.096;-1.27
45590.1;-1.255
45590.10400000001;-1.28
45590.108;-1.27
45590.112;-1.25
45590.115999999995;-1.255
45590.12;-1.24
45590.124;-1.23
45590.128;-1.23
45590.132000000005;-1.22
45590.136;-1.215
45590.14;-1.22
45590.144;-1.23
45590.148;-1.24
45590.152;-1.26
45590.155999999995;-1.235
45590.16;-1.245
45590.164000000004;-1.25
45590.168;-1.215
45590.172;-1.195
45590.176;-1.19
45590.18;-1.185
45590.184;-1.195
45590.187999999995;-1.17
45590.192;-1.17
45590.195999999996;-1.16
45590.2;-1.165
45590.204000000005;-1.16
45590.208;-1.14
45590.212;-1.13
45590.21599999999;-1.125
45590.22;-1.13
45590.224;-1.125
45590.227999999996;-1.115
45590.232;-1.135
45590.236;-1.125
45590.24;-1.105
45590.244000000006;-1.095
45590.248;-1.08
45590.252;-1.125
45590.255999999994;-1.125
45590.26;-1.145
45590.264;-1.145
45590.268;-1.13
45590.272000000004;-1.135
45590.276;-1.135
45590.28;-1.13
45590.28400000001;-1.135
45590.288;-1.135
45590.292;-1.155
45590.295999999995;-1.14
45590.3;-1.155
45590.304000000004;-1.15
45590.308;-1.145
45590.312000000005;-1.16
45590.316;-1.17
45590.32;-1.18
45590.324;-1.185
45590.328;-1.155
45590.332;-1.18
45590.335999999996;-1.16
45590.34;-1.15
45590.344000000005;-1.15
45590.348;-1.145
45590.352;-1.14
45590.356;-1.135
45590.36;-1.115
45590.364;-1.105
45590.367999999995;-1.1
45590.372;-1.075
45590.376;-1.055
45590.38;-1.015
45590.384000000005;-1.0
45590.388;-0.975
45590.392;-0.94
45590.39599999999;-0.925
45590.4;-0.925
45590.404;-0.92
45590.407999999996;-0.935
45590.412000000004;-0.95
45590.416;-0.975
45590.42;-0.995
45590.424000000006;-1.01
45590.428;-1.04
45590.432;-1.065
45590.435999999994;-1.095
45590.44;-1.135
45590.444;-1.13
45590.448;-1.15
45590.452000000005;-1.16
45590.456;-1.185
45590.46;-1.195
45590.46400000001;-1.2
45590.468;-1.22
45590.472;-1.22
45590.475999999995;-1.235
45590.48;-1.2
45590.484000000004;-1.22
45590.488;-1.23
45590.492;-1.23
45590.496;-1.225
45590.5;-1.205
45590.504;-1.22
45590.508;-1.21
45590.512;-1.21
45590.515999999996;-1.205
45590.52;-1.22
45590.524000000005;-1.25
45590.528;-1.29
45590.532;-1.33
45590.53599999999;-1.36
45590.54;-1.375
45590.544;-1.395
45590.547999999995;-1.42
45590.552;-1.415
45590.556;-1.42
45590.56;-1.475
45590.564000000006;-1.575
45590.568;-1.71
45590.572;-1.825
45590.575999999994;-1.88
45590.58;-1.865
45590.584;-1.74
45590.587999999996;-1.54
45590.592000000004;-1.36
45590.596;-1.215
45590.6;-1.06
45590.60400000001;-0.92
45590.608;-0.83
45590.612;-0.84
45590.615999999995;-0.96
45590.62;-1.09
45590.624;-1.19
45590.628;-1.22
45590.632000000005;-1.205
45590.636;-1.195
45590.64;-1.205
45590.644;-1.21
45590.648;-1.24
45590.652;-1.245
45590.655999999995;-1.235
45590.66;-1.235
45590.664000000004;-1.23
45590.668;-1.215
45590.672;-1.165
45590.676;-1.155
45590.68;-1.165
45590.684;-1.18
45590.687999999995;-1.18
45590.692;-1.215
45590.695999999996;-1.175
45590.7;-1.205
45590.704000000005;-1.195
45590.708;-1.165
45590.712;-1.15
45590.71599999999;-1.145
45590.72;-1.135
45590.724;-1.12
45590.727999999996;-1.11
45590.732;-1.11
45590.736;-1.11
45590.74;-1.105
45590.744000000006;-1.105
45590.748;-1.115
45590.752;-1.12
45590.755999999994;-1.11
45590.76;-1.09
45590.764;-1.075
45590.768;-1.095
45590.772000000004;-1.09
45590.776;-1.08
45590.78;-1.065
45590.78400000001;-1.065
45590.788;-1.065
45590.792;-1.04
45590.795999999995;-1.06
45590.8;-1.05
45590.804000000004;-1.07
45590.808;-1.04
45590.812000000005;-1.07
45590.816;-1.075
45590.82;-1.055
45590.824;-1.075
45590.828;-1.09
45590.832;-1.075
45590.835999999996;-1.075
45590.84;-1.08
45590.844000000005;-1.09
45590.848;-1.09
45590.852;-1.105
45590.856;-1.12
45590.86;-1.12
45590.864;-1.115
45590.867999999995;-1.14
45590.872;-1.14
45590.876;-1.145
45590.88;-1.15
45590.884000000005;-1.145
45590.888;-1.15
45590.892;-1.15
45590.89599999999;-1.145
45590.9;-1.155
45590.904;-1.155
45590.907999999996;-1.14
45590.912000000004;-1.155
45590.916;-1.15
45590.92;-1.16
45590.924000000006;-1.14
45590.928;-1.125
45590.932;-1.115
45590.935999999994;-1.11
45590.94;-1.09
45590.944;-1.05
45590.948;-1.045
45590.952000000005;-1.005
45590.956;-1.0
45590.96;-0.98
45590.96400000001;-0.965
45590.968;-0.94
45590.972;-0.955
45590.975999999995;-0.935
45590.98;-0.935
45590.984000000004;-0.96
45590.988;-0.94
45590.992;-0.955
45590.996;-0.975
45591.0;-0.98
45591.004;-0.995
45591.008;-1.025
45591.012;-1.06
45591.015999999996;-1.07
45591.02;-1.095
45591.024000000005;-1.115
45591.028;-1.155
45591.032;-1.185
45591.03599999999;-1.195
45591.04;-1.215
45591.044;-1.21
45591.047999999995;-1.22
45591.052;-1.235
45591.056;-1.215
45591.06;-1.215
45591.064000000006;-1.21
45591.068;-1.215
45591.072;-1.2
45591.075999999994;-1.195
45591.08;-1.235
45591.084;-1.205
45591.087999999996;-1.235
45591.092000000004;-1.255
45591.096;-1.225
45591.1;-1.24
45591.10400000001;-1.275
45591.108;-1.295
45591.112;-1.33
45591.115999999995;-1.34
45591.12;-1.375
45591.124;-1.375
45591.128;-1.36
45591.132000000005;-1.35
45591.136;-1.375
45591.14;-1.455
45591.144;-1.595
45591.148;-1.73
45591.152;-1.835
45591.155999999995;-1.85
45591.16;-1.78
45591.164000000004;-1.64
45591.168;-1.445
45591.172;-1.25
45591.176;-1.06
45591.18;-0.91
45591.184;-0.775
45591.187999999995;-0.705
45591.192;-0.755
45591.195999999996;-0.9
45591.2;-1.045
45591.204000000005;-1.135
45591.208;-1.17
45591.212;-1.18
45591.21599999999;-1.19
45591.22;-1.2
45591.224;-1.205
45591.227999999996;-1.195
45591.232;-1.2
45591.236;-1.22
45591.24;-1.195
45591.244000000006;-1.195
45591.248;-1.205
45591.252;-1.205
45591.255999999994;-1.18
45591.26;-1.195
45591.264;-1.19
45591.268;-1.19
45591.272000000004;-1.175
45591.276;-1.16
45591.28;-1.155
45591.28400000001;-1.15
45591.288;-1.16
45591.292;-1.17
45591.295999999995;-1.16
45591.3;-1.175
45591.304000000004;-1.19
45591.308;-1.2
45591.312000000005;-1.2
45591.316;-1.2
45591.32;-1.175
45591.324;-1.175
45591.328;-1.165
45591.332;-1.15
45591.335999999996;-1.125
45591.34;-1.12
45591.344000000005;-1.12
45591.348;-1.1
45591.352;-1.11
45591.356;-1.11
45591.36;-1.095
45591.364;-1.1
45591.367999999995;-1.09
45591.372;-1.095
45591.376;-1.09
45591.38;-1.06
45591.384000000005;-1.085
45591.388;-1.06
45591.392;-1.05
45591.39599999999;-1.075
45591.4;-1.095
45591.404;-1.085
45591.407999999996;-1.055
45591.412000000004;-1.085
45591.416;-1.075
45591.42;-1.075
45591.424000000006;-1.105
45591.428;-1.1
45591.432;-1.115
45591.435999999994;-1.135
45591.44;-1.11
45591.444;-1.11
45591.448;-1.1
45591.452000000005;-1.095
45591.456;-1.09
45591.46;-1.09
45591.46400000001;-1.105
45591.468;-1.11
45591.472;-1.135
45591.475999999995;-1.18
45591.48;-1.18
45591.484000000004;-1.17
45591.488;-1.155
45591.492;-1.175
45591.496;-1.185
45591.5;-1.16
45591.504;-1.165
45591.508;-1.13
45591.512;-1.12
45591.515999999996;-1.105
45591.52;-1.1
45591.524000000005;-1.085
45591.528;-1.065
45591.532;-1.045
45591.53599999999;-1.02
45591.54;-1.005
45591.544;-0.985
45591.547999999995;-0.965
45591.552;-0.915
45591.556;-0.93
45591.56;-0.91
45591.564000000006;-0.925
45591.568;-0.935
45591.572;-0.94
45591.575999999994;-0.945
45591.58;-0.99
45591.584;-1.04
45591.587999999996;-1.07
45591.592000000004;-1.065
45591.596;-1.11
45591.6;-1.13
45591.60400000001;-1.17
45591.608;-1.195
45591.612;-1.185
45591.615999999995;-1.18
45591.62;-1.185
45591.624;-1.195
45591.628;-1.245
45591.632000000005;-1.24
45591.636;-1.26
45591.64;-1.25
45591.644;-1.245
45591.648;-1.25
45591.652;-1.23
45591.655999999995;-1.23
45591.66;-1.225
45591.664000000004;-1.22
45591.668;-1.22
45591.672;-1.215
45591.676;-1.23
45591.68;-1.275
45591.684;-1.29
45591.687999999995;-1.32
45591.692;-1.385
45591.695999999996;-1.4
45591.7;-1.41
45591.704000000005;-1.425
45591.708;-1.43
45591.712;-1.475
45591.71599999999;-1.56
45591.72;-1.665
45591.724;-1.77
45591.727999999996;-1.83
45591.732;-1.83
45591.736;-1.685
45591.74;-1.5
45591.744000000006;-1.295
45591.748;-1.065
45591.752;-0.865
45591.755999999994;-0.665
45591.76;-0.54
45591.764;-0.535
45591.768;-0.66
45591.772000000004;-0.86
45591.776;-1.045
45591.78;-1.12
45591.78400000001;-1.175
45591.788;-1.185
45591.792;-1.185
45591.795999999995;-1.19
45591.8;-1.195
45591.804000000004;-1.195
45591.808;-1.19
45591.812000000005;-1.205
45591.816;-1.235
45591.82;-1.25
45591.824;-1.225
45591.828;-1.22
45591.832;-1.2
45591.835999999996;-1.19
45591.84;-1.18
45591.844000000005;-1.175
45591.848;-1.18
45591.852;-1.23
45591.856;-1.25
45591.86;-1.225
45591.864;-1.215
45591.867999999995;-1.2
45591.872;-1.19
45591.876;-1.185
45591.88;-1.195
45591.884000000005;-1.17
45591.888;-1.16
45591.892;-1.155
45591.89599999999;-1.145
45591.9;-1.125
45591.904;-1.12
45591.907999999996;-1.13
45591.912000000004;-1.135
45591.916;-1.13
45591.92;-1.17
45591.924000000006;-1.16
45591.928;-1.13
45591.932;-1.13
45591.935999999994;-1.13
45591.94;-1.135
45591.944;-1.11
45591.948;-1.09
45591.952000000005;-1.09
45591.956;-1.115
45591.96;-1.1
45591.96400000001;-1.07
45591.968;-1.06
45591.972;-1.08
45591.975999999995;-1.095
45591.98;-1.085
45591.984000000004;-1.065
45591.988;-1.075
45591.992;-1.085
45591.996;-1.08
45592.0;-1.075
45592.004;-1.045
45592.008;-1.08
45592.012;-1.09
45592.015999999996;-1.105
45592.02;-1.135
45592.024000000005;-1.12
45592.028;-1.085
45592.032;-1.085
45592.03599999999;-1.1
45592.04;-1.105
45592.044;-1.125
45592.047999999995;-1.17
45592.052;-1.175
45592.056;-1.175
45592.06;-1.15
45592.064000000006;-1.17
45592.068;-1.125
45592.072;-1.125
45592.075999999994;-1.13
45592.08;-1.13
45592.084;-1.105
45592.087999999996;-1.11
45592.092000000004;-1.095
45592.096;-1.06
45592.1;-1.06
45592.10400000001;-1.03
45592.108;-0.97
45592.112;-0.945
45592.115999999995;-0.92
45592.12;-0.915
45592.124;-0.935
45592.128;-0.965
45592.132000000005;-0.975
45592.136;-0.975
45592.14;-0.96
45592.144;-0.965
45592.148;-0.975
45592.152;-1.015
45592.155999999995;-1.04
45592.16;-1.07
45592.164000000004;-1.075
45592.168;-1.07
45592.172;-1.115
45592.176;-1.14
45592.18;-1.17
45592.184;-1.17
45592.187999999995;-1.215
45592.192;-1.22
45592.195999999996;-1.26
45592.2;-1.275
45592.204000000005;-1.275
45592.208;-1.255
45592.212;-1.245
45592.21599999999;-1.235
45592.22;-1.225
45592.224;-1.24
45592.227999999996;-1.225
45592.232;-1.205
45592.236;-1.19
45592.24;-1.175
45592.244000000006;-1.175
45592.248;-1.19
45592.252;-1.265
45592.255999999994;-1.355
45592.26;-1.425
45592.264;-1.48
45592.268;-1.52
45592.272000000004;-1.495
45592.276;-1.5
45592.28;-1.505
45592.28400000001;-1.56
45592.288;-1.655
45592.292;-1.78
45592.295999999995;-1.9
45592.3;-1.955
45592.304000000004;-1.895
45592.308;-1.76
45592.312000000005;-1.575
45592.316;-1.36
45592.32;-1.12
45592.324;-0.95
45592.328;-0.78
45592.332;-0.665
45592.335999999996;-0.69
45592.34;-0.83
45592.344000000005;-1.0
45592.348;-1.145
45592.352;-1.235
45592.356;-1.23
45592.36;-1.23
45592.364;-1.215
45592.367999999995;-1.22
45592.372;-1.225
45592.376;-1.245
45592.38;-1.24
45592.384000000005;-1.225
45592.388;-1.205
45592.392;-1.215
45592.39599999999;-1.21
45592.4;-1.22
45592.404;-1.235
45592.407999999996;-1.215
45592.412000000004;-1.22
45592.416;-1.215
45592.42;-1.21
45592.424000000006;-1.195
45592.428;-1.185
45592.432;-1.145
45592.435999999994;-1.155
45592.44;-1.165
45592.444;-1.185
45592.448;-1.155
45592.452000000005;-1.16
45592.456;-1.145
45592.46;-1.13
45592.46400000001;-1.125
45592.468;-1.12
45592.472;-1.125
45592.475999999995;-1.11
45592.48;-1.1
45592.484000000004;-1.1
45592.488;-1.085
45592.492;-1.07
45592.496;-1.075
45592.5;-1.075
45592.504;-1.065
45592.508;-1.055
45592.512;-1.07
45592.515999999996;-1.105
45592.52;-1.1
45592.524000000005;-1.08
45592.528;-1.085
45592.532;-1.08
45592.53599999999;-1.085
45592.54;-1.055
45592.544;-1.055
45592.547999999995;-1.045
45592.552;-1.045
45592.556;-1.055
45592.56;-1.07
45592.564000000006;-1.085
45592.568;-1.1
45592.572;-1.125
45592.575999999994;-1.125
45592.58;-1.155
45592.584;-1.16
45592.587999999996;-1.16
45592.592000000004;-1.145
45592.596;-1.14
45592.6;-1.13
45592.60400000001;-1.115
45592.608;-1.125
45592.612;-1.14
45592.615999999995;-1.115
45592.62;-1.14
45592.624;-1.145
45592.628;-1.16
45592.632000000005;-1.16
45592.636;-1.15
45592.64;-1.155
45592.644;-1.155
45592.648;-1.145
45592.652;-1.125
45592.655999999995;-1.09
45592.66;-1.07
45592.664000000004;-1.06
45592.668;-1.055
45592.672;-1.03
45592.676;-1.03
45592.68;-1.0
45592.684;-0.985
45592.687999999995;-0.965
45592.692;-0.94
45592.695999999996;-0.93
45592.7;-0.91
45592.704000000005;-0.905
45592.708;-0.91
45592.712;-0.89
45592.71599999999;-0.935
45592.72;-0.96
45592.724;-1.0
45592.727999999996;-1.02
45592.732;-1.01
45592.736;-1.07
45592.74;-1.075
45592.744000000006;-1.1
45592.748;-1.125
45592.752;-1.16
45592.755999999994;-1.145
45592.76;-1.16
45592.764;-1.17
45592.768;-1.185
45592.772000000004;-1.215
45592.776;-1.225
45592.78;-1.215
45592.78400000001;-1.215
45592.788;-1.225
45592.792;-1.23
45592.795999999995;-1.245
45592.8;-1.23
45592.804000000004;-1.225
45592.808;-1.225
45592.812000000005;-1.19
45592.816;-1.215
45592.82;-1.21
45592.824;-1.245
45592.828;-1.285
45592.832;-1.32
45592.835999999996;-1.335
45592.84;-1.37
45592.844000000005;-1.385
45592.848;-1.4
45592.852;-1.37
45592.856;-1.405
45592.86;-1.49
45592.864;-1.615
45592.867999999995;-1.73
45592.872;-1.87
45592.876;-1.895
45592.88;-1.82
45592.884000000005;-1.71
45592.888;-1.555
45592.892;-1.375
45592.89599999999;-1.215
45592.9;-1.075
45592.904;-0.955
45592.907999999996;-0.915
45592.912000000004;-0.965
45592.916;-1.045
45592.92;-1.15
45592.924000000006;-1.215
45592.928;-1.21
45592.932;-1.21
45592.935999999994;-1.195
45592.94;-1.2
45592.944;-1.215
45592.948;-1.19
45592.952000000005;-1.2
45592.956;-1.195
45592.96;-1.195
45592.96400000001;-1.2
45592.968;-1.18
45592.972;-1.16
45592.975999999995;-1.18
45592.98;-1.17
45592.984000000004;-1.16
45592.988;-1.145
45592.992;-1.14
45592.996;-1.12
45593.0;-1.135
45593.004;-1.12
45593.008;-1.135
45593.012;-1.13
45593.015999999996;-1.135
45593.02;-1.135
45593.024000000005;-1.115
45593.028;-1.105
45593.032;-1.1
45593.03599999999;-1.09
45593.04;-1.075
45593.044;-1.075
45593.047999999995;-1.075
45593.052;-1.06
45593.056;-1.05
45593.06;-1.065
45593.064000000006;-1.07
45593.068;-1.07
45593.072;-1.09
45593.075999999994;-1.07
45593.08;-1.07
45593.084;-1.055
45593.087999999996;-1.06
45593.092000000004;-1.045
45593.096;-1.04
45593.1;-1.025
45593.10400000001;-1.02
45593.108;-1.02
45593.112;-1.015
45593.115999999995;-1.02
45593.12;-1.02
45593.124;-1.025
45593.128;-1.03
45593.132000000005;-1.045
45593.136;-1.045
45593.14;-1.06
45593.144;-1.055
45593.148;-1.04
45593.152;-1.07
45593.155999999995;-1.08
45593.16;-1.075
45593.164000000004;-1.095
45593.168;-1.09
45593.172;-1.1
45593.176;-1.105
45593.18;-1.115
45593.184;-1.12
45593.187999999995;-1.115
45593.192;-1.115
45593.195999999996;-1.11
45593.2;-1.13
45593.204000000005;-1.105
45593.208;-1.135
45593.212;-1.135
45593.21599999999;-1.125
45593.22;-1.11
45593.224;-1.11
45593.227999999996;-1.08
45593.232;-1.07
45593.236;-1.075
45593.24;-1.06
45593.244000000006;-1.03
45593.248;-1.02
45593.252;-0.985
45593.255999999994;-0.97
45593.26;-0.92
45593.264;-0.915
45593.268;-0.88
45593.272000000004;-0.88
45593.276;-0.88
45593.28;-0.89
45593.28400000001;-0.92
45593.288;-0.94
45593.292;-0.955
45593.295999999995;-0.98
45593.3;-1.015
45593.304000000004;-1.03
45593.308;-1.045
45593.312000000005;-1.065
45593.316;-1.075
45593.32;-1.095
45593.324;-1.135
45593.328;-1.145
45593.332;-1.17
45593.335999999996;-1.195
45593.34;-1.195
45593.344000000005;-1.22
45593.348;-1.225
45593.352;-1.225
45593.356;-1.235
45593.36;-1.225
45593.364;-1.215
45593.367999999995;-1.205
45593.372;-1.2
45593.376;-1.17
45593.38;-1.175
45593.384000000005;-1.17
45593.388;-1.19
45593.392;-1.22
45593.39599999999;-1.24
45593.4;-1.285
45593.404;-1.29
45593.407999999996;-1.33
45593.412000000004;-1.37
45593.416;-1.355
45593.42;-1.385
45593.424000000006;-1.365
45593.428;-1.38
45593.432;-1.41
45593.435999999994;-1.47
45593.44;-1.595
45593.444;-1.745
45593.448;-1.835
45593.452000000005;-1.86
45593.456;-1.79
45593.46;-1.64
45593.46400000001;-1.44
45593.468;-1.225
45593.472;-1.04
45593.475999999995;-0.875
45593.48;-0.74
45593.484000000004;-0.685
45593.488;-0.715
45593.492;-0.83
45593.496;-0.985
45593.5;-1.115
45593.504;-1.175
45593.508;-1.185
45593.512;-1.195
45593.515999999996;-1.215
45593.52;-1.235
45593.524000000005;-1.23
45593.528;-1.22
45593.532;-1.2
45593.53599999999;-1.18
45593.54;-1.19
45593.544;-1.18
45593.547999999995;-1.185
45593.552;-1.21
45593.556;-1.2
45593.56;-1.235
45593.564000000006;-1.22
45593.568;-1.23
45593.572;-1.21
45593.575999999994;-1.185
45593.58;-1.165
45593.584;-1.165
45593.587999999996;-1.16
45593.592000000004;-1.165
45593.596;-1.155
45593.6;-1.155
45593.60400000001;-1.15
45593.608;-1.125
45593.612;-1.145
45593.615999999995;-1.14
45593.62;-1.155
45593.624;-1.13
45593.628;-1.155
45593.632000000005;-1.155
45593.636;-1.105
45593.64;-1.075
45593.644;-1.08
45593.648;-1.065
45593.652;-1.05
45593.655999999995;-1.045
45593.66;-1.045
45593.664000000004;-1.055
45593.668;-1.02
45593.672;-1.02
45593.676;-1.02
45593.68;-1.015
45593.684;-1.03
45593.687999999995;-1.06
45593.692;-1.065
45593.695999999996;-1.09
45593.7;-1.1
45593.704000000005;-1.08
45593.708;-1.055
45593.712;-1.065
45593.71599999999;-1.065
45593.72;-1.075
45593.724;-1.085
45593.727999999996;-1.08
45593.732;-1.105
45593.736;-1.135
45593.74;-1.12
45593.744000000006;-1.12
45593.748;-1.11
45593.752;-1.095
45593.755999999994;-1.105
45593.76;-1.105
45593.764;-1.095
45593.768;-1.115
45593.772000000004;-1.085
45593.776;-1.1
45593.78;-1.115
45593.78400000001;-1.135
45593.788;-1.125
45593.792;-1.12
45593.795999999995;-1.095
45593.8;-1.105
45593.804000000004;-1.085
45593.808;-1.085
45593.812000000005;-1.065
45593.816;-1.05
45593.82;-1.035
45593.824;-1.005
45593.828;-0.97
45593.832;-0.95
45593.835999999996;-0.93
45593.84;-0.915
45593.844000000005;-0.93
45593.848;-0.95
45593.852;-0.945
45593.856;-0.9
45593.86;-0.91
45593.864;-0.895
45593.867999999995;-0.915
45593.872;-0.96
45593.876;-0.98
45593.88;-1.035
45593.884000000005;-1.04
45593.888;-1.02
45593.892;-1.065
45593.89599999999;-1.08
45593.9;-1.135
45593.904;-1.16
45593.907999999996;-1.17
45593.912000000004;-1.185
45593.916;-1.175
45593.92;-1.21
45593.924000000006;-1.195
45593.928;-1.18
45593.932;-1.175
45593.935999999994;-1.185
45593.94;-1.2
45593.944;-1.21
45593.948;-1.25
45593.952000000005;-1.235
45593.956;-1.22
45593.96;-1.23
45593.96400000001;-1.22
45593.968;-1.21
45593.972;-1.22
45593.975999999995;-1.26
45593.98;-1.29
45593.984000000004;-1.34
45593.988;-1.36
45593.992;-1.4
45593.996;-1.405
45594.0;-1.42
45594.004;-1.44
45594.008;-1.53
45594.012;-1.615
45594.015999999996;-1.72
45594.02;-1.805
45594.024000000005;-1.82
45594.028;-1.725
45594.032;-1.6
45594.03599999999;-1.4
45594.04;-1.17
45594.044;-0.935
45594.047999999995;-0.74
45594.052;-0.555
45594.056;-0.445
45594.06;-0.51
45594.064000000006;-0.685
45594.068;-0.895
45594.072;-1.06
45594.075999999994;-1.15
45594.08;-1.17
45594.084;-1.17
45594.087999999996;-1.2
45594.092000000004;-1.2
45594.096;-1.19
45594.1;-1.23
45594.10400000001;-1.225
45594.108;-1.19
45594.112;-1.195
45594.115999999995;-1.185
45594.12;-1.17
45594.124;-1.175
45594.128;-1.185
45594.132000000005;-1.195
45594.136;-1.16
45594.14;-1.175
45594.144;-1.165
45594.148;-1.15
45594.152;-1.165
45594.155999999995;-1.16
45594.16;-1.175
45594.164000000004;-1.17
45594.168;-1.16
45594.172;-1.155
45594.176;-1.155
45594.18;-1.13
45594.184;-1.105
45594.187999999995;-1.105
45594.192;-1.095
45594.195999999996;-1.095
45594.2;-1.085
45594.204000000005;-1.065
45594.208;-1.045
45594.212;-1.05
45594.21599999999;-1.055
45594.22;-1.07
45594.224;-1.085
45594.227999999996;-1.09
45594.232;-1.08
45594.236;-1.07
45594.24;-1.06
45594.244000000006;-1.04
45594.248;-1.075
45594.252;-1.07
45594.255999999994;-1.075
45594.26;-1.085
45594.264;-1.09
45594.268;-1.08
45594.272000000004;-1.07
45594.276;-1.08
45594.28;-1.08
45594.28400000001;-1.075
45594.288;-1.085
45594.292;-1.115
45594.295999999995;-1.1
45594.3;-1.1
45594.304000000004;-1.1
45594.308;-1.095
45594.312000000005;-1.115
45594.316;-1.1
45594.32;-1.12
45594.324;-1.14
45594.328;-1.14
45594.332;-1.135
45594.335999999996;-1.135
45594.34;-1.11
45594.344000000005;-1.115
45594.348;-1.11
45594.352;-1.115
45594.356;-1.105
45594.36;-1.125
45594.364;-1.11
45594.367999999995;-1.11
45594.372;-1.09
45594.376;-1.09
45594.38;-1.09
45594.384000000005;-1.045
45594.388;-1.04
45594.392;-1.025
45594.39599999999;-1.025
45594.4;-1.0
45594.404;-0.98
45594.407999999996;-0.92
45594.412000000004;-0.865
45594.416;-0.85
45594.42;-0.855
45594.424000000006;-0.85
45594.428;-0.925
45594.432;-0.935
45594.435999999994;-0.945
45594.44;-0.945
45594.444;-0.955
45594.448;-1.02
45594.452000000005;-1.035
45594.456;-1.065
45594.46;-1.065
45594.46400000001;-1.065
45594.468;-1.08
45594.472;-1.11
45594.475999999995;-1.13
45594.48;-1.155
45594.484000000004;-1.18
45594.488;-1.205
45594.492;-1.205
45594.496;-1.245
45594.5;-1.24
45594.504;-1.235
45594.508;-1.24
45594.512;-1.24
45594.515999999996;-1.215
45594.52;-1.18
45594.524000000005;-1.19
45594.528;-1.215
45594.532;-1.215
45594.53599999999;-1.23
45594.54;-1.225
45594.544;-1.255
45594.547999999995;-1.325
45594.552;-1.365
45594.556;-1.395
45594.56;-1.42
45594.564000000006;-1.41
45594.568;-1.415
45594.572;-1.425
45594.575999999994;-1.465
45594.58;-1.53
45594.584;-1.695
45594.587999999996;-1.785
45594.592000000004;-1.86
45594.596;-1.835
45594.6;-1.755
45594.60400000001;-1.565
45594.608;-1.37
45594.612;-1.145
45594.615999999995;-0.955
45594.62;-0.81
45594.624;-0.655
45594.628;-0.625
45594.632000000005;-0.72
45594.636;-0.885
45594.64;-1.035
45594.644;-1.15
45594.648;-1.19
45594.652;-1.2
45594.655999999995;-1.205
45594.66;-1.23
45594.664000000004;-1.23
45594.668;-1.225
45594.672;-1.2
45594.676;-1.19
45594.68;-1.16
45594.684;-1.16
45594.687999999995;-1.145
45594.692;-1.155
45594.695999999996;-1.18
45594.7;-1.2
45594.704000000005;-1.19
45594.708;-1.19
45594.712;-1.18
45594.71599999999;-1.17
45594.72;-1.155
45594.724;-1.155
45594.727999999996;-1.145
45594.732;-1.13
45594.736;-1.135
45594.74;-1.145
45594.744000000006;-1.12
45594.748;-1.12
45594.752;-1.14
45594.755999999994;-1.13
45594.76;-1.125
45594.764;-1.125
45594.768;-1.12
45594.772000000004;-1.105
45594.776;-1.095
45594.78;-1.095
45594.78400000001;-1.075
45594.788;-1.065
45594.792;-1.07
45594.795999999995;-1.06
45594.8;-1.075
45594.804000000004;-1.06
45594.808;-1.055
45594.812000000005;-1.065
45594.816;-1.045
45594.82;-1.05
45594.824;-1.025
45594.828;-1.035
45594.832;-1.03
45594.835999999996;-1.015
45594.84;-0.995
45594.844000000005;-0.995
45594.848;-0.99
45594.852;-0.985
45594.856;-1.0
45594.86;-1.025
45594.864;-1.025
45594.867999999995;-1.065
45594.872;-1.065
45594.876;-1.07
45594.88;-1.065
45594.884000000005;-1.085
45594.888;-1.1
45594.892;-1.12
45594.89599999999;-1.12
45594.9;-1.14
45594.904;-1.13
45594.907999999996;-1.1
45594.912000000004;-1.11
45594.916;-1.095
45594.92;-1.09
45594.924000000006;-1.125
45594.928;-1.15
45594.932;-1.12
45594.935999999994;-1.145
45594.94;-1.125
45594.944;-1.135
45594.948;-1.12
45594.952000000005;-1.09
45594.956;-1.085
45594.96;-1.065
45594.96400000001;-1.04
45594.968;-1.03
45594.972;-1.02
45594.975999999995;-1.005
45594.98;-0.985
45594.984000000004;-0.96
45594.988;-0.925
45594.992;-0.915
45594.996;-0.905
45595.0;-0.89
45595.004;-0.875
45595.008;-0.895
45595.012;-0.91
45595.015999999996;-0.94
45595.02;-0.98
45595.024000000005;-1.025
45595.028;-1.05
45595.032;-1.055
45595.03599999999;-1.08
45595.04;-1.1
45595.044;-1.13
45595.047999999995;-1.155
45595.052;-1.15
45595.056;-1.155
45595.06;-1.175
45595.064000000006;-1.17
45595.068;-1.17
45595.072;-1.155
45595.075999999994;-1.185
45595.08;-1.18
45595.084;-1.2
45595.087999999996;-1.215
45595.092000000004;-1.185
45595.096;-1.18
45595.1;-1.17
45595.10400000001;-1.19
45595.108;-1.18
45595.112;-1.165
45595.115999999995;-1.16
45595.12;-1.215
45595.124;-1.295
45595.128;-1.36
45595.132000000005;-1.38
45595.136;-1.39
45595.14;-1.39
45595.144;-1.385
45595.148;-1.39
45595.152;-1.455
45595.155999999995;-1.575
45595.16;-1.74
45595.164000000004;-1.875
45595.168;-1.935
45595.172;-1.88
45595.176;-1.73
45595.18;-1.555
45595.184;-1.375
45595.187999999995;-1.205
45595.192;-1.065
45595.195999999996;-0.925
45595.2;-0.845
45595.204000000005;-0.865
45595.208;-0.99
45595.212;-1.135
45595.21599999999;-1.22
45595.22;-1.205
45595.224;-1.205
45595.227999999996;-1.195
45595.232;-1.2
45595.236;-1.175
45595.24;-1.195
45595.244000000006;-1.19
45595.248;-1.195
45595.252;-1.22
45595.255999999994;-1.23
45595.26;-1.22
45595.264;-1.2
45595.268;-1.175
45595.272000000004;-1.185
45595.276;-1.175
45595.28;-1.145
45595.28400000001;-1.145
45595.288;-1.16
45595.292;-1.15
45595.295999999995;-1.155
45595.3;-1.16
45595.304000000004;-1.135
45595.308;-1.105
45595.312000000005;-1.085
45595.316;-1.09
45595.32;-1.1
45595.324;-1.1
45595.328;-1.095
45595.332;-1.075
45595.335999999996;-1.045
45595.34;-1.04
45595.344000000005;-1.03
45595.348;-1.025
45595.352;-1.07
45595.356;-1.08
45595.36;-1.105
45595.364;-1.085
45595.367999999995;-1.095
45595.372;-1.08
45595.376;-1.08
45595.38;-1.095
45595.384000000005;-1.055
45595.388;-1.025
45595.392;-1.01
45595.39599999999;-1.02
45595.4;-1.045
45595.404;-1.065
45595.407999999996;-1.035
45595.412000000004;-1.065
45595.416;-1.055
45595.42;-1.075
45595.424000000006;-1.085
45595.428;-1.11
45595.432;-1.1
45595.435999999994;-1.1
45595.44;-1.115
45595.444;-1.115
45595.448;-1.105
45595.452000000005;-1.1
45595.456;-1.115
45595.46;-1.12
45595.46400000001;-1.12
45595.468;-1.135
45595.472;-1.145
45595.475999999995;-1.165
45595.48;-1.185
45595.484000000004;-1.155
45595.488;-1.14
45595.492;-1.14
45595.496;-1.145
45595.5;-1.145
45595.504;-1.135
45595.508;-1.115
45595.512;-1.095
45595.515999999996;-1.105
45595.52;-1.11
45595.524000000005;-1.12
45595.528;-1.14
45595.532;-1.145
45595.53599999999;-1.145
45595.54;-1.1
45595.544;-1.075
45595.547999999995;-1.025
45595.552;-0.995
45595.556;-0.965
45595.56;-0.95
45595.564000000006;-0.945
45595.568;-0.945
45595.572;-0.955
45595.575999999994;-0.97
45595.58;-1.005
45595.584;-1.015
45595.587999999996;-1.06
45595.592000000004;-1.075
45595.596;-1.1
45595.6;-1.12
45595.60400000001;-1.135
45595.608;-1.145
45595.612;-1.125
45595.615999999995;-1.16
45595.62;-1.205
45595.624;-1.225
45595.628;-1.225
45595.632000000005;-1.25
45595.636;-1.255
45595.64;-1.26
45595.644;-1.27
45595.648;-1.27
45595.652;-1.25
45595.655999999995;-1.24
45595.66;-1.23
45595.664000000004;-1.2
45595.668;-1.195
45595.672;-1.195
45595.676;-1.21
45595.68;-1.21
45595.684;-1.235
45595.687999999995;-1.275
45595.692;-1.305
45595.695999999996;-1.33
45595.7;-1.365
45595.704000000005;-1.415
45595.708;-1.42
45595.712;-1.415
45595.71599999999;-1.415
45595.72;-1.42
45595.724;-1.425
45595.727999999996;-1.495
45595.732;-1.6
45595.736;-1.755
45595.74;-1.845
45595.744000000006;-1.905
45595.748;-1.865
45595.752;-1.74
45595.755999999994;-1.57
45595.76;-1.38
45595.764;-1.19
45595.768;-1.04
45595.772000000004;-0.875
45595.776;-0.77
45595.78;-0.775
45595.78400000001;-0.88
45595.788;-1.02
45595.792;-1.14
45595.795999999995;-1.215
45595.8;-1.24
45595.804000000004;-1.24
45595.808;-1.265
45595.812000000005;-1.265
45595.816;-1.255
45595.82;-1.235
45595.824;-1.24
45595.828;-1.225
45595.832;-1.22
45595.835999999996;-1.23
45595.84;-1.215
45595.844000000005;-1.22
45595.848;-1.2
45595.852;-1.2
45595.856;-1.2
45595.86;-1.215
45595.864;-1.24
45595.867999999995;-1.24
45595.872;-1.24
45595.876;-1.215
45595.88;-1.2
45595.884000000005;-1.19
45595.888;-1.195
45595.892;-1.16
45595.89599999999;-1.15
45595.9;-1.145
45595.904;-1.135
45595.907999999996;-1.135
45595.912000000004;-1.14
45595.916;-1.15
45595.92;-1.16
45595.924000000006;-1.16
45595.928;-1.13
45595.932;-1.1
45595.935999999994;-1.1
45595.94;-1.1
45595.944;-1.115
45595.948;-1.11
45595.952000000005;-1.12
45595.956;-1.1
45595.96;-1.085
45595.96400000001;-1.095
45595.968;-1.09
45595.972;-1.09
45595.975999999995;-1.09
45595.98;-1.08
45595.984000000004;-1.075
45595.988;-1.07
45595.992;-1.06
45595.996;-1.035
45596.0;-1.035
45596.004;-1.015
45596.008;-1.015
45596.012;-1.015
45596.015999999996;-1.075
45596.02;-1.105
45596.024000000005;-1.11
45596.028;-1.115
45596.032;-1.105
45596.03599999999;-1.105
45596.04;-1.095
45596.044;-1.095
45596.047999999995;-1.09
45596.052;-1.09
45596.056;-1.1
45596.06;-1.11
45596.064000000006;-1.11
45596.068;-1.115
45596.072;-1.105
45596.075999999994;-1.105
45596.08;-1.1
45596.084;-1.115
45596.087999999996;-1.12
45596.092000000004;-1.155
45596.096;-1.13
45596.1;-1.12
45596.10400000001;-1.11
45596.108;-1.075
45596.112;-1.045
45596.115999999995;-1.01
45596.12;-1.005
45596.124;-0.98
45596.128;-0.99
45596.132000000005;-0.935
45596.136;-0.925
45596.14;-0.9
45596.144;-0.89
45596.148;-0.87
45596.152;-0.87
45596.155999999995;-0.86
45596.16;-0.91
45596.164000000004;-0.93
45596.168;-0.945
45596.172;-0.945
45596.176;-0.96
45596.18;-1.015
45596.184;-1.11
45596.187999999995;-1.16
45596.192;-1.2
45596.195999999996;-1.22
45596.2;-1.215
45596.204000000005;-1.195
45596.208;-1.225
45596.212;-1.215
45596.21599999999;-1.21
45596.22;-1.22
45596.224;-1.23
45596.227999999996;-1.215
45596.232;-1.215
45596.236;-1.225
45596.24;-1.225
45596.244000000006;-1.225
45596.248;-1.24
45596.252;-1.235
45596.255999999994;-1.23
45596.26;-1.24
45596.264;-1.265
45596.268;-1.27
45596.272000000004;-1.3
45596.276;-1.33
45596.28;-1.365
45596.28400000001;-1.4
45596.288;-1.395
45596.292;-1.425
45596.295999999995;-1.435
45596.3;-1.46
45596.304000000004;-1.535
45596.308;-1.655
45596.312000000005;-1.785
45596.316;-1.84
45596.32;-1.835
45596.324;-1.755
45596.328;-1.6
45596.332;-1.435
45596.335999999996;-1.195
45596.34;-0.985
45596.344000000005;-0.82
45596.348;-0.66
45596.352;-0.575
45596.356;-0.64
45596.36;-0.8
45596.364;-0.97
45596.367999999995;-1.09
45596.372;-1.145
45596.376;-1.14
45596.38;-1.125
45596.384000000005;-1.135
45596.388;-1.11
45596.392;-1.14
45596.39599999999;-1.16
45596.4;-1.17
45596.404;-1.22
45596.407999999996;-1.23
45596.412000000004;-1.25
45596.416;-1.26
45596.42;-1.275
45596.424000000006;-1.265
45596.428;-1.25
45596.432;-1.24
45596.435999999994;-1.235
45596.44;-1.21
45596.444;-1.225
45596.448;-1.225
45596.452000000005;-1.21
45596.456;-1.21
45596.46;-1.195
45596.46400000001;-1.195
45596.468;-1.195
45596.472;-1.19
45596.475999999995;-1.185
45596.48;-1.16
45596.484000000004;-1.155
45596.488;-1.14
45596.492;-1.13
45596.496;-1.135
45596.5;-1.115
45596.504;-1.12
45596.508;-1.1
45596.512;-1.115
45596.515999999996;-1.12
45596.52;-1.15
45596.524000000005;-1.155
45596.528;-1.125
45596.532;-1.125
45596.53599999999;-1.12
45596.54;-1.085
45596.544;-1.095
45596.547999999995;-1.08
45596.552;-1.1
45596.556;-1.1
45596.56;-1.105
45596.564000000006;-1.105
45596.568;-1.095
45596.572;-1.11
45596.575999999994;-1.1
45596.58;-1.105
45596.584;-1.105
45596.587999999996;-1.1
45596.592000000004;-1.1
45596.596;-1.095
45596.6;-1.075
45596.60400000001;-1.09
45596.608;-1.105
45596.612;-1.115
45596.615999999995;-1.125
45596.62;-1.16
45596.624;-1.18
45596.628;-1.175
45596.632000000005;-1.145
45596.636;-1.095
45596.64;-1.09
45596.644;-1.095
45596.648;-1.125
45596.652;-1.15
45596.655999999995;-1.165
45596.66;-1.17
45596.664000000004;-1.145
45596.668;-1.15
45596.672;-1.14
45596.676;-1.125
45596.68;-1.09
45596.684;-1.1
45596.687999999995;-1.09
45596.692;-1.085
45596.695999999996;-1.04
45596.7;-1.0
45596.704000000005;-0.94
45596.708;-0.915
45596.712;-0.91
45596.71599999999;-0.945
45596.72;-0.965
45596.724;-0.985
45596.727999999996;-0.995
45596.732;-1.0
45596.736;-1.035
45596.74;-1.075
45596.744000000006;-1.105
45596.748;-1.13
45596.752;-1.145
45596.755999999994;-1.14
45596.76;-1.14
45596.764;-1.16
45596.768;-1.2
45596.772000000004;-1.225
45596.776;-1.225
45596.78;-1.23
45596.78400000001;-1.275
45596.788;-1.285
45596.792;-1.28
45596.795999999995;-1.29
45596.8;-1.28
45596.804000000004;-1.275
45596.808;-1.28
45596.812000000005;-1.275
45596.816;-1.235
45596.82;-1.23
45596.824;-1.225
45596.828;-1.24
45596.832;-1.275
45596.835999999996;-1.295
45596.84;-1.33
45596.844000000005;-1.37
45596.848;-1.405
45596.852;-1.415
45596.856;-1.45
45596.86;-1.47
45596.864;-1.485
45596.867999999995;-1.48
45596.872;-1.51
45596.876;-1.61
45596.88;-1.725
45596.884000000005;-1.845
45596.888;-1.935
45596.892;-1.935
45596.89599999999;-1.855
45596.9;-1.705
45596.904;-1.495
45596.907999999996;-1.265
45596.912000000004;-1.055
45596.916;-0.86
45596.92;-0.69
45596.924000000006;-0.66
45596.928;-0.78
45596.932;-0.96
45596.935999999994;-1.125
45596.94;-1.21
45596.944;-1.235
45596.948;-1.205
45596.952000000005;-1.215
45596.956;-1.23
45596.96;-1.255
45596.96400000001;-1.265
45596.968;-1.275
45596.972;-1.23
45596.975999999995;-1.195
45596.98;-1.195
45596.984000000004;-1.19
45596.988;-1.18
45596.992;-1.165
45596.996;-1.195
45597.0;-1.23
45597.004;-1.21
45597.008;-1.17
45597.012;-1.16
45597.015999999996;-1.185
45597.02;-1.26
45597.024000000005;-1.245
45597.028;-1.245
45597.032;-1.18
45597.03599999999;-1.15
45597.04;-1.14
45597.044;-1.175
45597.047999999995;-1.205
45597.052;-1.19
45597.056;-1.185
45597.06;-1.16
45597.064000000006;-1.13
45597.068;-1.115
45597.072;-1.12
45597.075999999994;-1.12
45597.08;-1.12
45597.084;-1.105
45597.087999999996;-1.1
45597.092000000004;-1.115
45597.096;-1.1
45597.1;-1.085
45597.10400000001;-1.07
45597.108;-1.08
45597.112;-1.05
45597.115999999995;-1.045
45597.12;-1.03
45597.124;-1.03
45597.128;-1.02
45597.132000000005;-1.025
45597.136;-1.025
45597.14;-1.045
45597.144;-1.04
45597.148;-1.06
45597.152;-1.1
45597.155999999995;-1.095
45597.16;-1.11
45597.164000000004;-1.11
45597.168;-1.11
45597.172;-1.13
45597.176;-1.13
45597.18;-1.14
45597.184;-1.14
45597.187999999995;-1.11
45597.192;-1.1
45597.195999999996;-1.135
45597.2;-1.14
45597.204000000005;-1.11
45597.208;-1.095
45597.212;-1.08
45597.21599999999;-1.07
45597.22;-1.075
45597.224;-1.08
45597.227999999996;-1.09
45597.232;-1.095
45597.236;-1.125
45597.24;-1.12
45597.244000000006;-1.11
45597.248;-1.085
45597.252;-1.06
45597.255999999994;-1.045
45597.26;-1.01
45597.264;-0.995
45597.268;-0.975
45597.272000000004;-0.96
45597.276;-0.945
45597.28;-0.93
45597.28400000001;-0.93
45597.288;-0.925
45597.292;-0.935
45597.295999999995;-0.92
45597.3;-0.91
45597.304000000004;-0.935
45597.308;-0.96
45597.312000000005;-0.975
45597.316;-1.02
45597.32;-1.055
45597.324;-1.055
45597.328;-1.1
45597.332;-1.15
45597.335999999996;-1.16
45597.34;-1.185
45597.344000000005;-1.195
45597.348;-1.18
45597.352;-1.205
45597.356;-1.175
45597.36;-1.19
45597.364;-1.215
45597.367999999995;-1.23
45597.372;-1.24
45597.376;-1.255
45597.38;-1.25
45597.384000000005;-1.22
45597.388;-1.24
45597.392;-1.24
45597.39599999999;-1.225
45597.4;-1.22
45597.404;-1.22
45597.407999999996;-1.23
45597.412000000004;-1.235
45597.416;-1.28
45597.42;-1.35
45597.424000000006;-1.365
45597.428;-1.395
45597.432;-1.4
45597.435999999994;-1.435
45597.44;-1.425
45597.444;-1.425
45597.448;-1.5
45597.452000000005;-1.645
45597.456;-1.795
45597.46;-1.91
45597.46400000001;-1.91
45597.468;-1.825
45597.472;-1.68
45597.475999999995;-1.52
45597.48;-1.345
45597.484000000004;-1.195
45597.488;-1.06
45597.492;-0.945
45597.496;-0.915
45597.5;-0.965
45597.504;-1.075
45597.508;-1.175
45597.512;-1.245
45597.515999999996;-1.25
45597.52;-1.21
45597.524000000005;-1.175
45597.528;-1.19
45597.532;-1.215
45597.53599999999;-1.235
45597.54;-1.225
45597.544;-1.215
45597.547999999995;-1.225
45597.552;-1.23
45597.556;-1.21
45597.56;-1.185
45597.564000000006;-1.19
45597.568;-1.195
45597.572;-1.175
45597.575999999994;-1.15
45597.58;-1.13
45597.584;-1.135
45597.587999999996;-1.155
45597.592000000004;-1.17
45597.596;-1.165
45597.6;-1.175
45597.60400000001;-1.145
45597.608;-1.13
45597.612;-1.125
45597.615999999995;-1.095
45597.62;-1.095
45597.624;-1.11
45597.628;-1.1
45597.632000000005;-1.11
45597.636;-1.095
45597.64;-1.07
45597.644;-1.07
45597.648;-1.065
45597.652;-1.075
45597.655999999995;-1.035
45597.66;-0.98
45597.664000000004;-0.98
45597.668;-1.005
45597.672;-1.08
45597.676;-1.09
45597.68;-1.08
45597.684;-1.01
45597.687999999995;-0.99
45597.692;-0.98
45597.695999999996;-1.01
45597.7;-1.075
45597.704000000005;-1.115
45597.708;-1.12
45597.712;-1.12
45597.71599999999;-1.16
45597.72;-1.16
45597.724;-1.16
45597.727999999996;-1.165
45597.732;-1.155
45597.736;-1.155
45597.74;-1.15
45597.744000000006;-1.14
45597.748;-1.14
45597.752;-1.125
45597.755999999994;-1.145
45597.76;-1.15
45597.764;-1.17
45597.768;-1.17
45597.772000000004;-1.16
45597.776;-1.17
45597.78;-1.18
45597.78400000001;-1.165
45597.788;-1.155
45597.792;-1.14
45597.795999999995;-1.145
45597.8;-1.14
45597.804000000004;-1.13
45597.808;-1.14
45597.812000000005;-1.115
45597.816;-1.13
45597.82;-1.105
45597.824;-1.09
45597.828;-1.04
45597.832;-1.055
45597.835999999996;-1.04
45597.84;-1.04
45597.844000000005;-1.01
45597.848;-1.005
45597.852;-0.97
45597.856;-0.915
45597.86;-0.905
45597.864;-0.875
45597.867999999995;-0.91
45597.872;-0.93
45597.876;-0.97
45597.88;-1.02
45597.884000000005;-1.06
45597.888;-1.1
45597.892;-1.11
45597.89599999999;-1.13
45597.9;-1.15
45597.904;-1.15
45597.907999999996;-1.175
45597.912000000004;-1.18
45597.916;-1.215
45597.92;-1.23
45597.924000000006;-1.26
45597.928;-1.255
45597.932;-1.255
45597.935999999994;-1.25
45597.94;-1.24
45597.944;-1.245
45597.948;-1.22
45597.952000000005;-1.22
45597.956;-1.215
45597.96;-1.185
45597.96400000001;-1.21
45597.968;-1.215
45597.972;-1.21
45597.975999999995;-1.2
45597.98;-1.21
45597.984000000004;-1.24
45597.988;-1.26
45597.992;-1.305
45597.996;-1.32
45598.0;-1.36
45598.004;-1.37
45598.008;-1.375
45598.012;-1.36
45598.015999999996;-1.36
45598.02;-1.405
45598.024000000005;-1.495
45598.028;-1.625
45598.032;-1.76
45598.03599999999;-1.865
45598.04;-1.845
45598.044;-1.73
45598.047999999995;-1.58
45598.052;-1.4
45598.056;-1.19
45598.06;-1.03
45598.064000000006;-0.89
45598.068;-0.77
45598.072;-0.705
45598.075999999994;-0.77
45598.08;-0.925
45598.084;-1.04
45598.087999999996;-1.16
45598.092000000004;-1.185
45598.096;-1.15
45598.1;-1.13
45598.10400000001;-1.085
45598.108;-1.07
45598.112;-1.06
45598.115999999995;-1.07
45598.12;-1.08
45598.124;-1.12
45598.128;-1.15
45598.132000000005;-1.135
45598.136;-1.145
45598.14;-1.16
45598.144;-1.225
45598.148;-1.255
45598.152;-1.26
45598.155999999995;-1.25
45598.16;-1.2
45598.164000000004;-1.16
45598.168;-1.125
45598.172;-1.125
45598.176;-1.11
45598.18;-1.12
45598.184;-1.12
45598.187999999995;-1.135
45598.192;-1.13
45598.195999999996;-1.125
45598.2;-1.115
45598.204000000005;-1.105
45598.208;-1.125
45598.212;-1.115
45598.21599999999;-1.1
45598.22;-1.095
45598.224;-1.09
45598.227999999996;-1.06
45598.232;-1.065
45598.236;-1.05
45598.24;-1.05
45598.244000000006;-1.07
45598.248;-1.055
45598.252;-1.055
45598.255999999994;-1.06
45598.26;-1.055
45598.264;-1.04
45598.268;-1.0
45598.272000000004;-0.995
45598.276;-1.005
45598.28;-1.03
45598.28400000001;-1.045
45598.288;-1.04
45598.292;-1.045
45598.295999999995;-1.035
45598.3;-1.04
45598.304000000004;-1.05
45598.308;-1.055
45598.312000000005;-1.08
45598.316;-1.115
45598.32;-1.105
45598.324;-1.09
45598.328;-1.095
45598.332;-1.095
45598.335999999996;-1.075
45598.34;-1.075
45598.344000000005;-1.09
45598.348;-1.085
45598.352;-1.095
45598.356;-1.1
45598.36;-1.105
45598.364;-1.1
45598.367999999995;-1.1
45598.372;-1.095
45598.376;-1.09
45598.38;-1.07
45598.384000000005;-1.06
45598.388;-1.07
45598.392;-1.04
45598.39599999999;-1.035
45598.4;-1.02
45598.404;-1.0
45598.407999999996;-0.995
45598.412000000004;-0.99
45598.416;-0.965
45598.42;-0.95
45598.424000000006;-0.945
45598.428;-0.92
45598.432;-0.925
45598.435999999994;-0.92
45598.44;-0.91
45598.444;-0.89
45598.448;-0.86
45598.452000000005;-0.855
45598.456;-0.865
45598.46;-0.89
45598.46400000001;-0.915
45598.468;-0.98
45598.472;-1.055
45598.475999999995;-1.075
45598.48;-1.08
45598.484000000004;-1.085
45598.488;-1.105
45598.492;-1.13
45598.496;-1.14
45598.5;-1.135
45598.504;-1.12
45598.508;-1.06
45598.512;-1.065
45598.515999999996;-1.13
45598.52;-1.195
45598.524000000005;-1.25
45598.528;-1.275
45598.532;-1.255
45598.53599999999;-1.25
45598.54;-1.22
45598.544;-1.255
45598.547999999995;-1.245
45598.552;-1.265
45598.556;-1.29
45598.56;-1.285
45598.564000000006;-1.3
45598.568;-1.34
45598.572;-1.365
45598.575999999994;-1.39
45598.58;-1.4
45598.584;-1.4
45598.587999999996;-1.4
45598.592000000004;-1.44
45598.596;-1.52
